# total lensed [l(l+1)/2pi] C_l's (units: [microK]^2)
# for l=2 to 6000, i.e. number of multipoles equal to 5999
#
# -> if you don't want to see such a header, set 'headers' to 'no' in input file
# -> for CMB lensing (d), these are C_l^dd for the deflection field.
#    Remember the conversion factors:
#    C_l^dd (deflection) = l(l+1) C_l^phi-phi
#    C_l^gg (shear/convergence) = 1/4 (l(l+1))^2 C_l^phi-phi
#
# 1:l     2:TT                     3:EE                     4:BB                     5:TE                     6:dd                     7:dT                     8:dE                 
    2       1.015494274304e+03       3.132583567457e-02       1.842875383972e-06       2.618910738997e+00       4.903189928574e-08       2.983051598493e-03      -1.231531685319e-05 
    3       9.612426842060e+02       4.127359616085e-02       3.686638326823e-06       2.969578229357e+00       6.053850042403e-08       3.000809620539e-03      -1.341697410761e-05 
    4       9.095162884900e+02       3.679652225086e-02       6.146344484345e-06       2.802794012133e+00       7.035693229441e-08       2.936401316488e-03      -1.160395412974e-05 
    5       8.705887480719e+02       2.534050078413e-02       9.223108407837e-06       2.408565100765e+00       7.889489695325e-08       2.841208746487e-03      -8.198293913044e-06 
    6       8.436994061569e+02       1.454174928644e-02       1.291826625158e-05       1.956080287671e+00       8.637395095126e-08       2.735991728257e-03      -4.323082597056e-06 
    7       8.265350931607e+02       7.872954299275e-03       1.723334102331e-05       1.545463033008e+00       9.297061714725e-08       2.630209198439e-03      -8.814744201369e-07 
    8       8.162134360780e+02       4.946637869014e-03       2.217000398144e-05       1.222632871449e+00       9.880022385982e-08       2.527067615618e-03       1.546102426114e-06 
    9       8.112545201223e+02       3.923537673548e-03       2.773003365213e-05       1.000210979017e+00       1.039818725103e-07       2.427692005918e-03       2.732300015793e-06 
   10       8.103036678687e+02       3.391184639359e-03       3.391527401721e-05       8.711695011138e-01       1.086428317153e-07       2.334501272786e-03       2.769519588931e-06 
   11       8.122793241522e+02       2.882338731320e-03       4.072759343840e-05       8.180852367057e-01       1.094694116544e-07       2.256563866627e-03       1.986735946468e-06 
   12       8.169428380899e+02       2.484804125798e-03       4.816884583342e-05       8.192194059879e-01       1.130738997762e-07       2.174584573049e-03       8.015930118305e-07 
   13       8.232617617171e+02       2.330123317183e-03       5.624083550670e-05       8.540400908753e-01       1.163062179451e-07       2.097705967579e-03      -3.744349136960e-07 
   14       8.307350142380e+02       2.394185981245e-03       6.494528686777e-05       9.069286925888e-01       1.192077933660e-07       2.019548809108e-03      -1.243023715474e-06 
   15       8.395792731691e+02       2.576376462880e-03       7.428382004988e-05       9.672232209433e-01       1.218134044586e-07       1.948713017321e-03      -1.648944529600e-06 
   16       8.497091891225e+02       2.825695523306e-03       8.425793317994e-05       1.028766348572e+00       1.241536723734e-07       1.884099048401e-03      -1.602385751678e-06 
   17       8.603106210545e+02       3.168466895487e-03       9.486899175888e-05       1.089814493836e+00       1.262552820295e-07       1.822986668073e-03      -1.235617606847e-06 
   18       8.716920760002e+02       3.658235671766e-03       1.061182218525e-04       1.150894496444e+00       1.280901400550e-07       1.761400787947e-03      -7.476020883227e-07 
   19       8.839481921495e+02       4.310893543058e-03       1.180067310756e-04       1.213677414950e+00       1.298268119440e-07       1.701883815347e-03      -2.928480945114e-07 
   20       8.965799888667e+02       5.122204576493e-03       1.305354812582e-04       1.280006905721e+00       1.313265278233e-07       1.645983548886e-03      -2.723784156795e-08 
   21       9.096786927207e+02       6.082053646192e-03       1.437053551490e-04       1.350230598782e+00       1.326760882598e-07       1.595268546375e-03       4.857691713914e-09 
   22       9.232843700607e+02       7.176319292540e-03       1.575171244086e-04       1.423677559776e+00       1.338513325808e-07       1.548619421210e-03      -1.688136655132e-07 
   23       9.373296908083e+02       8.408269485151e-03       1.719715291683e-04       1.498349072729e+00       1.349215577834e-07       1.505017951230e-03      -4.757782165501e-07 
   24       9.515762776887e+02       9.784494426057e-03       1.870692457346e-04       1.571386179407e+00       1.358382319423e-07       1.461797572746e-03      -8.016523156740e-07 
   25       9.660985312548e+02       1.130276050446e-02       2.028109788048e-04       1.640257192693e+00       1.366553905514e-07       1.419198571695e-03      -1.064446680924e-06 
   26       9.809568827022e+02       1.295936217235e-02       2.191974232902e-04       1.702492928340e+00       1.373519452900e-07       1.377679931498e-03      -1.193314794663e-06 
   27       9.961673909009e+02       1.476567934465e-02       2.362293435213e-04       1.756920960903e+00       1.379547243903e-07       1.338502449055e-03      -1.179551941919e-06 
   28       1.011659789752e+03       1.673822484322e-02       2.539075466403e-04       1.802956774582e+00       1.384278472874e-07       1.302427138535e-03      -1.049631645941e-06 
   29       1.027463576067e+03       1.888952003790e-02       2.722329705155e-04       1.840817726986e+00       1.388437450934e-07       1.269437820078e-03      -8.502364065130e-07 
   30       1.043544142903e+03       2.123150515057e-02       2.912066279554e-04       1.871218506662e+00       1.392224814585e-07       1.238055619062e-03      -6.556639513581e-07 
   31       1.059790239524e+03       2.377569929574e-02       3.108296001759e-04       1.894990722069e+00       1.394844669105e-07       1.205918614984e-03      -5.506682698072e-07 
   32       1.076228420900e+03       2.652872509146e-02       3.311030864939e-04       1.912156000646e+00       1.396740837373e-07       1.173645976880e-03      -5.466120629168e-07 
   33       1.092869720380e+03       2.949499385645e-02       3.520283886651e-04       1.922515483624e+00       1.398195652279e-07       1.142691142880e-03      -6.219963834243e-07 
   34       1.109677201883e+03       3.267852058234e-02       3.736068880076e-04       1.925755644116e+00       1.398850368483e-07       1.114155114018e-03      -7.436805993901e-07 
   35       1.126679917705e+03       3.608555299837e-02       3.958399776485e-04       1.920986837499e+00       1.399020254387e-07       1.088069891547e-03      -8.805740883149e-07 
   36       1.143886483379e+03       3.972279316028e-02       4.187291199022e-04       1.907025565359e+00       1.398771167302e-07       1.063574002610e-03      -9.934758150096e-07 
   37       1.161272749199e+03       4.359664782974e-02       4.422758019278e-04       1.882708920001e+00       1.397714018162e-07       1.039418361407e-03      -1.041700345537e-06 
   38       1.178864458665e+03       4.771310626132e-02       4.664812971863e-04       1.847603701344e+00       1.396228631372e-07       1.015707865211e-03      -1.025509577607e-06 
   39       1.196673338283e+03       5.207778208665e-02       4.913468310220e-04       1.801527819485e+00       1.394669157918e-07       9.928191471229e-04      -9.631736102894e-07 
   40       1.214669431941e+03       5.669591461956e-02       5.168736463081e-04       1.744365404069e+00       1.392904448706e-07       9.709097734256e-04      -8.818945009911e-07 
   41       1.232804000568e+03       6.157236657655e-02       5.430628993875e-04       1.676081624456e+00       1.390469149904e-07       9.499546017810e-04      -8.121983173160e-07 
   42       1.251097592257e+03       6.671167558297e-02       5.699153039349e-04       1.596763561849e+00       1.387586705289e-07       9.300057096277e-04      -7.645743440015e-07 
   43       1.269573356287e+03       7.211797795793e-02       5.974313734144e-04       1.506599217512e+00       1.384508390096e-07       9.109713730471e-04      -7.437034314931e-07 
   44       1.288229877436e+03       7.779496511567e-02       6.256115106736e-04       1.405872319257e+00       1.381161084593e-07       8.924988571692e-04      -7.543408761328e-07 
   45       1.307052862861e+03       8.374604986750e-02       6.544559310362e-04       1.294809920715e+00       1.377268842015e-07       8.741298388055e-04      -7.994206235198e-07 
   46       1.326060165759e+03       8.997497913808e-02       6.839644182442e-04       1.173059987247e+00       1.373071216147e-07       8.559601960517e-04      -8.734618606982e-07 
   47       1.345266037765e+03       9.648536507011e-02       7.141364853880e-04       1.040065482634e+00       1.368847823625e-07       8.381966650310e-04      -9.661685367279e-07 
   48       1.364666548435e+03       1.032804995782e-01       7.449714297050e-04       8.952035170174e-01       1.364677207736e-07       8.209673853664e-04      -1.063651493884e-06 
   49       1.384237940150e+03       1.103633421219e-01       7.764683225186e-04       7.377809211541e-01       1.360375777716e-07       8.043059769773e-04      -1.148017573554e-06 
   50       1.403950794708e+03       1.177361167237e-01       8.086260457224e-04       5.671676383037e-01       1.355617077878e-07       7.881857155560e-04      -1.202294494722e-06 
   51       1.423820883004e+03       1.253990024365e-01       8.414434362438e-04       3.832498530062e-01       1.350540232391e-07       7.726794664721e-04      -1.228640057097e-06 
   52       1.443869274278e+03       1.333510662831e-01       8.749191634032e-04       1.860922088212e-01       1.345345223622e-07       7.578348448734e-04      -1.236706569551e-06 
   53       1.464106851161e+03       1.415905930547e-01       9.090516781151e-04      -2.418724837331e-02       1.340101310328e-07       7.436171983709e-04      -1.239203063286e-06 
   54       1.484533408662e+03       1.501150546948e-01       9.438392050173e-04      -2.474150105878e-01       1.334711126404e-07       7.298971550477e-04      -1.252211962488e-06 
   55       1.505144142467e+03       1.589220549191e-01       9.792799528182e-04      -4.834317780098e-01       1.328994108076e-07       7.165103495184e-04      -1.291152644047e-06 
   56       1.525953065472e+03       1.680125080098e-01       1.015372824557e-03      -7.323264563879e-01       1.323084816449e-07       7.034941118342e-04      -1.356104339610e-06 
   57       1.546973830232e+03       1.773881960762e-01       1.052116870004e-03      -9.942566817324e-01       1.317158033573e-07       6.909149928864e-04      -1.441658527958e-06 
   58       1.568212249539e+03       1.870508702272e-01       1.089511083516e-03      -1.269382902118e+00       1.311302494417e-07       6.787976618991e-04      -1.540666446179e-06 
   59       1.589665683308e+03       1.970022579513e-01       1.127554404677e-03      -1.557869112572e+00       1.305498787278e-07       6.671187027807e-04      -1.644070273242e-06 
   60       1.611322425463e+03       2.072440704978e-01       1.166245718921e-03      -1.859883589955e+00       1.299595235753e-07       6.558001432510e-04      -1.740728236375e-06 
   61       1.633168895409e+03       2.177768057869e-01       1.205584110801e-03      -2.175547753910e+00       1.293388553580e-07       6.447469145593e-04      -1.819850117928e-06 
   62       1.655214485788e+03       2.285958264547e-01       1.245569688780e-03      -2.504767673638e+00       1.286973041183e-07       6.339899706798e-04      -1.879697466716e-06 
   63       1.677471229468e+03       2.396944105738e-01       1.286202947533e-03      -2.847365872959e+00       1.280498571975e-07       6.235790257293e-04      -1.921471137245e-06 
   64       1.699946128865e+03       2.510648482168e-01       1.327484540134e-03      -3.203128973940e+00       1.274065765115e-07       6.135393339770e-04      -1.946999844858e-06 
   65       1.722640790460e+03       2.626984106196e-01       1.369415286700e-03      -3.571806785865e+00       1.267713788872e-07       6.038683637193e-04      -1.958800150211e-06 
   66       1.745551059316e+03       2.745853193452e-01       1.411996183040e-03      -3.953111394196e+00       1.261407138319e-07       5.945323407507e-04      -1.960138466221e-06 
   67       1.768666653599e+03       2.867147154475e-01       1.455228409302e-03      -4.346716249537e+00       1.255021354722e-07       5.854626614312e-04      -1.955095087459e-06 
   68       1.791977118827e+03       2.990759741880e-01       1.499113257872e-03      -4.752309772924e+00       1.248404737299e-07       5.765832772181e-04      -1.947720979352e-06 
   69       1.815491908589e+03       3.116630274586e-01       1.543651880768e-03      -5.169770821131e+00       1.241629906070e-07       5.679112099853e-04      -1.939054800028e-06 
   70       1.839223734835e+03       3.244708658241e-01       1.588845506363e-03      -5.599027301984e+00       1.234814793924e-07       5.594797083698e-04      -1.929323219143e-06 
   71       1.863182407958e+03       3.374942739754e-01       1.634695522066e-03      -6.040005278413e+00       1.228047869646e-07       5.513081390505e-04      -1.918773151786e-06 
   72       1.887374632944e+03       3.507278343064e-01       1.681203480912e-03      -6.492629451695e+00       1.221381322400e-07       5.434002735435e-04      -1.907672059983e-06 
   73       1.911803805516e+03       3.641659304904e-01       1.728371108136e-03      -6.956823644701e+00       1.214823725493e-07       5.357425142695e-04      -1.896308239695e-06 
   74       1.936469808288e+03       3.778027510577e-01       1.776200307763e-03      -7.432511285135e+00       1.208332164414e-07       5.283020598927e-04      -1.884991093306e-06 
   75       1.961368806905e+03       3.916322929718e-01       1.824693169185e-03      -7.919615888781e+00       1.201803814108e-07       5.210250099320e-04      -1.874051387595e-06 
   76       1.986496303039e+03       4.056477200854e-01       1.873851653665e-03      -8.418020761389e+00       1.195121465824e-07       5.138557277766e-04      -1.863823077256e-06 
   77       2.011857386708e+03       4.198392955401e-01       1.923676573275e-03      -8.927438552290e+00       1.188330759682e-07       5.068055576964e-04      -1.854582419073e-06 
   78       2.037457991844e+03       4.341960770764e-01       1.974168436856e-03      -9.447518680690e+00       1.181510269170e-07       4.998992465725e-04      -1.846592683500e-06 
   79       2.063301670455e+03       4.487065192107e-01       2.025327753600e-03      -9.977885659450e+00       1.174718754508e-07       4.931544611002e-04      -1.840120204425e-06 
   80       2.089389455559e+03       4.633584635829e-01       2.077155033073e-03      -1.051813874207e+01       1.167991186187e-07       4.865809688632e-04      -1.835433372176e-06 
   81       2.115719724114e+03       4.781391293050e-01       2.129650785227e-03      -1.106785156967e+01       1.161334497843e-07       4.801797929663e-04      -1.832801582387e-06 
   82       2.142288059953e+03       4.930351033091e-01       2.182815520427e-03      -1.162657181800e+01       1.154723061451e-07       4.739423402295e-04      -1.832494140730e-06 
   83       2.169087116713e+03       5.080323306952e-01       2.236649749465e-03      -1.219382084442e+01       1.148093877858e-07       4.678495029412e-04      -1.834779123511e-06 
   84       2.196109632449e+03       5.231167361512e-01       2.291154107551e-03      -1.276912541978e+01       1.141376849484e-07       4.618802990720e-04      -1.839831360578e-06 
   85       2.223358347930e+03       5.382762277196e-01       2.346329749869e-03      -1.335211974150e+01       1.134609138243e-07       4.560423648792e-04      -1.847432600673e-06 
   86       2.250837488922e+03       5.534990090611e-01       2.402178021934e-03      -1.394245976354e+01       1.127848845331e-07       4.503473130375e-04      -1.857194968873e-06 
   87       2.278549677843e+03       5.687729788577e-01       2.458700343522e-03      -1.453979279855e+01       1.121140589550e-07       4.448013206599e-04      -1.868639497387e-06 
   88       2.306495849665e+03       5.840857317675e-01       2.515898210778e-03      -1.514375770419e+01       1.114513081601e-07       4.394046039541e-04      -1.881189968752e-06 
   89       2.334675167812e+03       5.994245593790e-01       2.573773198312e-03      -1.575398506927e+01       1.107976549068e-07       4.341508778534e-04      -1.894166606489e-06 
   90       2.363084940066e+03       6.147764511649e-01       2.632326961305e-03      -1.637009740004e+01       1.101520008613e-07       4.290268006230e-04      -1.906779613226e-06 
   91       2.391720534465e+03       6.301280954371e-01       2.691561237611e-03      -1.699170930642e+01       1.095108381850e-07       4.240114034406e-04      -1.918122556284e-06 
   92       2.420575295205e+03       6.454658803008e-01       2.751477849858e-03      -1.761842768818e+01       1.088679451433e-07       4.190755049522e-04      -1.927165600726e-06 
   93       2.449642769737e+03       6.607760432080e-01       2.812079078574e-03      -1.824984511881e+01       1.082169511015e-07       4.141913277116e-04      -1.932996439691e-06 
   94       2.478923955876e+03       6.760451432755e-01       2.873368841167e-03      -1.888551845409e+01       1.075606598900e-07       4.093651841584e-04      -1.935621075718e-06 
   95       2.508420994237e+03       6.912596620989e-01       2.935351694979e-03      -1.952498733557e+01       1.069039037917e-07       4.046110255383e-04      -1.935330220708e-06 
   96       2.538134902492e+03       7.064058644365e-01       2.998032489156e-03      -2.016778079795e+01       1.062507730736e-07       3.999406509180e-04      -1.932470061527e-06 
   97       2.568065522991e+03       7.214698012036e-01       3.061416371852e-03      -2.081341736194e+01       1.056044848417e-07       3.953634853580e-04      -1.927445373752e-06 
   98       2.598211470396e+03       7.364373124664e-01       3.125508797421e-03      -2.146140512712e+01       1.049672444468e-07       3.908863520612e-04      -1.920722701207e-06 
   99       2.628570079302e+03       7.512940304365e-01       3.190315533610e-03      -2.211124186476e+01       1.043400992784e-07       3.865132384954e-04      -1.912833601297e-06 
  100       2.659137351866e+03       7.660253824649e-01       3.255842668758e-03      -2.276241511074e+01       1.037227847891e-07       3.822450564915e-04      -1.904377956119e-06 
  101       2.689907905436e+03       7.806165940358e-01       3.322096618991e-03      -2.341440225834e+01       1.031135625887e-07       3.780793963152e-04      -1.896027349370e-06 
  102       2.720874920174e+03       7.950526917615e-01       3.389084135417e-03      -2.406667065113e+01       1.025090504487e-07       3.740102747147e-04      -1.888528509047e-06 
  103       2.752030086686e+03       8.093185063757e-01       3.456812311319e-03      -2.471867767582e+01       1.019040440569e-07       3.700278769420e-04      -1.882706815931e-06 
  104       2.783365345818e+03       8.233990733651e-01       3.525288014041e-03      -2.536987949811e+01       1.012934461573e-07       3.661224396848e-04      -1.879286970929e-06 
  105       2.814878488513e+03       8.372808900487e-01       3.594516077727e-03      -2.601975841414e+01       1.006790759827e-07       3.622973834122e-04      -1.878305502765e-06 
  106       2.846568218301e+03       8.509508346840e-01       3.664500878724e-03      -2.666779938414e+01       1.000643321328e-07       3.585583403769e-04      -1.879586234927e-06 
  107       2.878432394386e+03       8.643957912690e-01       3.735246889955e-03      -2.731348190495e+01       9.945216622657e-08       3.549090985102e-04      -1.882910516512e-06 
