# total lensed [l(l+1)/2pi] C_l's (units: [microK]^2)
# for l=2 to 6000, i.e. number of multipoles equal to 5999
#
# -> if you don't want to see such a header, set 'headers' to 'no' in input file
# -> for CMB lensing (d), these are C_l^dd for the deflection field.
#    Remember the conversion factors:
#    C_l^dd (deflection) = l(l+1) C_l^phi-phi
#    C_l^gg (shear/convergence) = 1/4 (l(l+1))^2 C_l^phi-phi
#
# 1:l     2:TT                     3:EE                     4:BB                     5:TE                     6:dd                     7:dT                     8:dE                 
    2       1.015494245062e+03       3.132585345791e-02       1.861845190981e-06       2.618910620255e+00       4.899299243597e-08       2.982535437410e-03      -1.231521825082e-05 
    3       9.612426321584e+02       4.127363225412e-02       3.724573279513e-06       2.969578017269e+00       6.048832623485e-08       3.000146889429e-03      -1.341704256575e-05 
    4       9.095161472073e+02       3.679658334506e-02       6.209559121723e-06       2.802793736813e+00       7.029591000838e-08       2.935614849556e-03      -1.160412758120e-05 
    5       8.705884890797e+02       2.534059332791e-02       9.317911259130e-06       2.408564789385e+00       7.882163006874e-08       2.840312969178e-03      -8.198472952226e-06 
    6       8.436990334133e+02       1.454187971763e-02       1.305095850419e-05       1.956079901440e+00       8.628682685113e-08       2.734997892056e-03      -4.323217515629e-06 
    7       8.265345814116e+02       7.873129014430e-03       1.741021529502e-05       1.545462550828e+00       9.286818892889e-08       2.629126452205e-03      -8.815580023085e-07 
    8       8.162127515492e+02       4.946863128325e-03       2.239734320893e-05       1.222632304249e+00       9.868144023432e-08       2.525904785165e-03       1.546059763056e-06 
    9       8.112536383874e+02       3.923819631126e-03       2.801411010351e-05       1.000210271901e+00       1.038459163516e-07       2.426457038094e-03       2.732284521319e-06 
   10       8.103025555682e+02       3.391529328992e-03       3.426234843200e-05       8.711686716076e-01       1.084888336841e-07       2.333200420089e-03       2.769520043011e-06 
   11       8.122779481696e+02       2.882751993688e-03       4.114391429389e-05       8.180843043378e-01       1.093297799572e-07       2.255265040399e-03       1.986718077438e-06 
   12       8.169411744216e+02       2.485291997695e-03       4.866064873167e-05       8.192182692678e-01       1.129200056457e-07       2.173495609189e-03       8.017143532339e-07 
   13       8.232598003405e+02       2.330691958568e-03       5.681434267290e-05       8.540387857709e-01       1.161389686012e-07       2.096173250935e-03      -3.742216966337e-07 
   14       8.307327128260e+02       2.394840927429e-03       6.560670674660e-05       9.069272659400e-01       1.190265504148e-07       2.018134226287e-03      -1.242984548872e-06 
   15       8.395766022569e+02       2.577123352990e-03       7.503934698393e-05       9.672214845432e-01       1.216182024576e-07       1.947137999550e-03      -1.648980259779e-06 
   16       8.497061142178e+02       2.826540816705e-03       8.511374715163e-05       1.028764284750e+00       1.239445905233e-07       1.882853992702e-03      -1.602564386926e-06 
   17       8.603071534690e+02       3.169415793226e-03       9.583125817630e-05       1.089812349673e+00       1.260315996583e-07       1.821610982808e-03      -1.235385880284e-06 
   18       8.716881782809e+02       3.659292330783e-03       1.071930913682e-04       1.150891935427e+00       1.278522414421e-07       1.759795795568e-03      -7.472791674297e-07 
   19       8.839438226751e+02       4.312063250746e-03       1.192003393614e-04       1.213674282411e+00       1.295750890050e-07       1.700234857629e-03      -2.928297304898e-07 
   20       8.965751280985e+02       5.123494327051e-03       1.318539488685e-04       1.280003554074e+00       1.310610407701e-07       1.644471809463e-03      -2.741061577417e-08 
   21       9.096733243828e+02       6.083469822136e-03       1.451547872123e-04       1.350227301823e+00       1.323966496192e-07       1.593915166280e-03       4.745319830419e-09 
   22       9.232784736592e+02       7.177866769542e-03       1.591036104208e-04       1.423674295996e+00       1.335577855957e-07       1.547221348719e-03      -1.686764154992e-07 
   23       9.373232392428e+02       8.409952303098e-03       1.737011425754e-04       1.498345689410e+00       1.346138169861e-07       1.503442754164e-03      -4.754856566431e-07 
   24       9.515692385007e+02       9.786316302117e-03       1.889480436178e-04       1.571382477363e+00       1.355165056103e-07       1.460112893325e-03      -8.016194533479e-07 
   25       9.660908819955e+02       1.130472653225e-02       2.048450013167e-04       1.640253125596e+00       1.363198839709e-07       1.417510325418e-03      -1.064742951157e-06 
   26       9.809486144219e+02       1.296147909404e-02       2.213926932115e-04       1.702488654795e+00       1.370028503307e-07       1.376059788051e-03      -1.193455925372e-06 
   27       9.961584917174e+02       1.476795290795e-02       2.385918656018e-04       1.756916633255e+00       1.375921706892e-07       1.336950899695e-03      -1.179323611557e-06 
   28       1.011650239343e+03       1.674065906062e-02       2.564433070266e-04       1.802952471392e+00       1.380519689700e-07       1.300861736345e-03      -1.049378363456e-06 
   29       1.027453349973e+03       1.889211872680e-02       2.749479359299e-04       1.840813499733e+00       1.384545817562e-07       1.267787643059e-03      -8.502712937962e-07 
   30       1.043533213212e+03       2.123427249036e-02       2.941067450522e-04       1.871214389515e+00       1.388200616815e-07       1.236311073159e-03      -6.559839168083e-07 
   31       1.059778576115e+03       2.377863986850e-02       3.139207949239e-04       1.894986736425e+00       1.390689409617e-07       1.204140700967e-03      -5.509258089309e-07 
   32       1.076215999966e+03       2.653184352778e-02       3.343912633995e-04       1.912152195757e+00       1.392455667576e-07       1.171895970121e-03      -5.465420663292e-07 
   33       1.092856528613e+03       2.949829473257e-02       3.555194300701e-04       1.922511955495e+00       1.393781726700e-07       1.140998999915e-03      -6.216290316821e-07 
   34       1.109663235475e+03       3.268200839278e-02       3.773066534584e-04       1.925752527088e+00       1.394309794266e-07       1.112512891690e-03      -7.433589089498e-07 
   35       1.126665169224e+03       3.608923203778e-02       3.997543034291e-04       1.920984230808e+00       1.394354907436e-07       1.086455615485e-03      -8.805844902202e-07 
   36       1.143870936397e+03       3.972666746069e-02       4.228638184404e-04       1.907023500870e+00       1.393982980981e-07       1.061958676033e-03      -9.938756157299e-07 
   37       1.161256378269e+03       4.360072119835e-02       4.466366613271e-04       1.882707366080e+00       1.392805614249e-07       1.037768218606e-03      -1.042295302639e-06 
   38       1.178847237329e+03       4.771738259032e-02       4.710740813788e-04       1.847602635827e+00       1.391202065208e-07       1.013996160825e-03      -1.026079235568e-06 
   39       1.196655241641e+03       5.208226548370e-02       4.961772795040e-04       1.801527256392e+00       1.389525899696e-07       9.910335425507e-04      -9.635585636123e-07 
   40       1.214650437117e+03       5.670060947042e-02       5.219474737148e-04       1.744365402583e+00       1.387646086919e-07       9.690583109524e-04      -8.820272159961e-07 
   41       1.232784086909e+03       6.157727746281e-02       5.483857953469e-04       1.676082289255e+00       1.385097900738e-07       9.480664252021e-04      -8.121124208462e-07 
   42       1.251076740545e+03       6.671680669883e-02       5.754929338527e-04       1.596765012688e+00       1.382104450798e-07       9.281108134653e-04      -7.643253410562e-07 
   43       1.269551548679e+03       7.212333287147e-02       6.032693786385e-04       1.506601580550e+00       1.378916728898e-07       9.090926124401e-04      -7.433427412229e-07 
   44       1.288207097672e+03       7.780054665860e-02       6.317155084336e-04       1.405875726726e+00       1.375461947233e-07       8.906488213543e-04      -7.539116629992e-07 
   45       1.307029095985e+03       8.375186024616e-02       6.608315145761e-04       1.294814507795e+00       1.371464860110e-07       8.723099873051e-04      -7.989554067615e-07 
   46       1.326035396124e+03       8.998102080173e-02       6.906171575463e-04       1.173065879655e+00       1.367164645735e-07       8.541689926181e-04      -8.729879340942e-07 
   47       1.345240248260e+03       9.649164103759e-02       7.210719275223e-04       1.040072790657e+00       1.362840424317e-07       8.364320206845e-04      -9.657079993988e-07 
   48       1.364639720156e+03       1.032870135635e-01       7.521950990568e-04       8.952123318617e-01       1.358570607174e-07       8.192268073671e-04      -1.063218927539e-06 
   49       1.384210052062e+03       1.103700986664e-01       7.839857210501e-04       7.377913110929e-01       1.354171959961e-07       8.025867496168e-04      -1.147617440235e-06 
   50       1.403921823893e+03       1.177431210916e-01       8.164426530939e-04       5.671796521252e-01       1.349318650524e-07       7.864849545063e-04      -1.201920824362e-06 
   51       1.423790806917e+03       1.254062597077e-01       8.495647093969e-04       3.832635481533e-01       1.344149533639e-07       7.709936508677e-04      -1.228284827231e-06 
   52       1.443838071515e+03       1.333585810424e-01       8.833505365941e-04       1.861076611966e-01       1.338864218416e-07       7.561597203031e-04      -1.236362381395e-06 
   53       1.464074501667e+03       1.415983693014e-01       9.177985631312e-04      -2.416994136299e-02       1.333531867533e-07       7.419478368638e-04      -1.238863581408e-06 
   54       1.484499893957e+03       1.501230957474e-01       9.529069914201e-04      -2.473957268343e-01       1.328055379540e-07       7.282280311634e-04      -1.251872407071e-06 
   55       1.505109445581e+03       1.589303634808e-01       9.886740075345e-04      -4.834103739908e-01       1.322254631549e-07       7.148357301954e-04      -1.290810243266e-06 
   56       1.525917169916e+03       1.680210867723e-01       1.025098489271e-03      -7.323027921492e-01       1.316263908934e-07       7.018094851544e-04      -1.355758513341e-06 
   57       1.546936719712e+03       1.773970479108e-01       1.062179460244e-03      -9.942306292956e-01       1.310257625186e-07       6.892178696108e-04      -1.441311336568e-06 
   58       1.568173907947e+03       1.870599982239e-01       1.099915888374e-03      -1.269354347825e+00       1.304324343763e-07       6.770881665356e-04      -1.540323173947e-06 
   59       1.589626094714e+03       1.970116654601e-01       1.138306686520e-03      -1.557837959533e+00       1.298444734598e-07       6.654002221387e-04      -1.643740063422e-06 
   60       1.611281574104e+03       2.072537611716e-01       1.177350713108e-03      -1.859849760603e+00       1.292467517556e-07       6.540800345712e-04      -1.740424779681e-06 
   61       1.633126765403e+03       2.177867835597e-01       1.217047024575e-03      -2.175511188343e+00       1.286189916086e-07       6.430361687742e-04      -1.819590953796e-06 
   62       1.655171059958e+03       2.286060953056e-01       1.257395697494e-03      -2.504728313983e+00       1.279705978850e-07       6.322991809213e-04      -1.879498442134e-06 
   63       1.677426488853e+03       2.397049744604e-01       1.298397192943e-03      -2.847323658750e+00       1.273165175462e-07       6.219169250169e-04      -1.921344187603e-06 
   64       1.699900052478e+03       2.510757110698e-01       1.340052129424e-03      -3.203083841502e+00       1.266667834728e-07       6.119122941189e-04      -1.946951999815e-06 
   65       1.722593355038e+03       2.627095763376e-01       1.382361291488e-03      -3.571758667668e+00       1.260252981335e-07       6.022798520462e-04      -1.958832455670e-06 
   66       1.745502239065e+03       2.745967917889e-01       1.425325638349e-03      -3.953060218176e+00       1.253885149880e-07       5.929823333443e-04      -1.960244819728e-06 
   67       1.768616419921e+03       2.867264984335e-01       1.468946312511e-03      -4.346661938387e+00       1.247440143648e-07       5.839470115090e-04      -1.955260984351e-06 
   68       1.791925440995e+03       2.990880715020e-01       1.513224567726e-03      -4.752252244844e+00       1.240766590414e-07       5.750940084815e-04      -1.947924209647e-06 
   69       1.815438757478e+03       3.116754429314e-01       1.558161516660e-03      -5.169709995368e+00       1.233936860699e-07       5.664400211404e-04      -1.939272904947e-06 
   70       1.839169084205e+03       3.244836033565e-01       1.603758347349e-03      -5.598963100500e+00       1.227068524668e-07       5.580191535998e-04      -1.929536064750e-06 
   71       1.863126234851e+03       3.375073375456e-01       1.650016405776e-03      -6.039937626155e+00       1.220249771937e-07       5.498519464500e-04      -1.918963695038e-06 
   72       1.887316918097e+03       3.507412279770e-01       1.696937202427e-03      -6.492558276869e+00       1.213532618193e-07       5.419436908882e-04      -1.907827178010e-06 
   73       1.911744533789e+03       3.641796584162e-01       1.744522418851e-03      -6.956748879052e+00       1.206925592888e-07       5.342826829586e-04      -1.896419624197e-06 
   74       1.936408969107e+03       3.778168174929e-01       1.792773914215e-03      -7.432432864233e+00       1.200385893032e-07       5.268384179033e-04      -1.885056211964e-06 
   75       1.961306394722e+03       3.916467022779e-01       1.841693731863e-03      -7.919533752317e+00       1.193810988109e-07       5.195597246217e-04      -1.874074514399e-06 
   76       1.986432316272e+03       4.056624767250e-01       1.891283786628e-03      -8.417934854042e+00       1.187084007078e-07       5.123934908662e-04      -1.863814798484e-06 
   77       2.011791821784e+03       4.198544040235e-01       1.941544846435e-03      -8.927348826436e+00       1.180250422004e-07       5.053511937633e-04      -1.854553919486e-06 
   78       2.037390841269e+03       4.342115419472e-01       1.992477376041e-03      -9.447425097627e+00       1.173388538296e-07       4.984569688236e-04      -1.846553960546e-06 
   79       2.063232922323e+03       4.487223450443e-01       2.044081839814e-03      -9.977788190086e+00       1.166556914200e-07       4.917277355800e-04      -1.840079731517e-06 
   80       2.089319093040e+03       4.633746549857e-01       2.096358701750e-03      -1.051803736764e+01       1.159790399120e-07       4.851723694240e-04      -1.835397737097e-06 
   81       2.115647724930e+03       4.781556909129e-01       2.149308425478e-03      -1.106774628246e+01       1.153095902308e-07       4.787908467661e-04      -1.832775100142e-06 
   82       2.142214395835e+03       4.930520397860e-01       2.202931474276e-03      -1.162646262212e+01       1.146447884964e-07       4.725733635185e-04      -1.832478440188e-06 
   83       2.169011752841e+03       5.080496467314e-01       2.257228311080e-03      -1.219370775653e+01       1.139783568773e-07       4.664994269014e-04      -1.834772707157e-06 
   84       2.196032528704e+03       5.231344364588e-01       2.312199522216e-03      -1.276900846919e+01       1.133033096695e-07       4.605467829624e-04      -1.839829848977e-06 
   85       2.223279465952e+03       5.382943170182e-01       2.367846212138e-03      -1.335199896799e+01       1.126233467500e-07       4.547228767331e-04      -1.847431290216e-06 
   86       2.250756794300e+03       5.535174920713e-01       2.424169674457e-03      -1.394233521707e+01       1.119442535716e-07       4.490394636856e-04      -1.857189598425e-06 
   87       2.278467140574e+03       5.687918602973e-01       2.481171276092e-03      -1.453966453971e+01       1.112704717887e-07       4.435029253498e-04      -1.868626359249e-06 
   88       2.306411444631e+03       5.841050163475e-01       2.538852459369e-03      -1.514362580456e+01       1.106048576322e-07       4.381137485465e-04      -1.881166027001e-06 
   89       2.334588875269e+03       5.994442517990e-01       2.597214744107e-03      -1.575384961191e+01       1.099484254160e-07       4.328659897135e-04      -1.894129622873e-06 
   90       2.362996746150e+03       6.147965561095e-01       2.656259729706e-03      -1.636995847988e+01       1.093000758258e-07       4.277467243238e-04      -1.906728280791e-06 
   91       2.391630431707e+03       6.301486175708e-01       2.715989097246e-03      -1.699156703072e+01       1.086563086424e-07       4.227354813975e-04      -1.918056640916e-06 
   92       2.420483283069e+03       6.454868242633e-01       2.776404611570e-03      -1.761828217697e+01       1.080109195507e-07       4.178036631059e-04      -1.927086090790e-06 
   93       2.449548853533e+03       6.607974136059e-01       2.837508493610e-03      -1.824969650424e+01       1.073575560856e-07       4.129240395148e-04      -1.932905446365e-06 
   94       2.478828140515e+03       6.760669446614e-01       2.899304596879e-03      -1.888536687629e+01       1.066990077898e-07       4.081030263455e-04      -1.935520902237e-06 
   95       2.508323282397e+03       6.912818989609e-01       2.961797412608e-03      -1.952483294149e+01       1.060400858945e-07       4.033545599091e-04      -1.935223091192e-06 
   96       2.538035294334e+03       7.064285411904e-01       3.024991722362e-03      -2.016762374124e+01       1.053848629069e-07       3.986904251997e-04      -1.932358089179e-06 
   97       2.567964015867e+03       7.214929221856e-01       3.088892605210e-03      -2.081325780282e+01       1.047365420953e-07       3.941200342584e-04      -1.927330526986e-06 
   98       2.598108058548e+03       7.364608819252e-01       3.153505444899e-03      -2.146124323223e+01       1.040973195600e-07       3.896501985177e-04      -1.920606767667e-06 
   99       2.628464753556e+03       7.513180525253e-01       3.218835937026e-03      -2.211107780704e+01       1.034682387317e-07       3.852848951275e-04      -1.912718149701e-06 
  100       2.659030099315e+03       7.660498612327e-01       3.284890096209e-03      -2.276224906924e+01       1.028490371381e-07       3.810250272616e-04      -1.904264295905e-06 
  101       2.689798709115e+03       7.806415334196e-01       3.351674263264e-03      -2.341423441807e+01       1.022379852794e-07       3.768681784050e-04      -1.895916488079e-06 
  102       2.720763758728e+03       7.950780955768e-01       3.419195112375e-03      -2.406650120289e+01       1.016317174550e-07       3.728083606229e-04      -1.888421107398e-06 
  103       2.751916934030e+03       8.093443783080e-01       3.487459658266e-03      -2.471850681601e+01       1.010250543804e-07       3.688357568097e-04      -1.882603140550e-06 
  104       2.783250171818e+03       8.234254169503e-01       3.556474690176e-03      -2.536970743056e+01       1.004129231489e-07       3.649405913755e-04      -1.879186933176e-06 
  105       2.814761262911e+03       8.373077086220e-01       3.626244971250e-03      -2.601958535848e+01       9.979713422814e-08       3.611262225029e-04      -1.878208981142e-06 
  106       2.846448911820e+03       8.509781313553e-01       3.696774808148e-03      -2.666762557847e+01       9.918106979290e-08       3.573982025806e-04      -1.879493166721e-06 
  107       2.878310978850e+03       8.644235689084e-01       3.768068603392e-03      -2.731330760662e+01       9.856766705381e-08       3.537602337068e-04      -1.882820906359e-06 
