# total lensed [l(l+1)/2pi] C_l's (units: [microK]^2)
# for l=2 to 6000, i.e. number of multipoles equal to 5999
#
# -> if you don't want to see such a header, set 'headers' to 'no' in input file
# -> for CMB lensing (d), these are C_l^dd for the deflection field.
#    Remember the conversion factors:
#    C_l^dd (deflection) = l(l+1) C_l^phi-phi
#    C_l^gg (shear/convergence) = 1/4 (l(l+1))^2 C_l^phi-phi
#
# 1:l     2:TT                     3:EE                     4:BB                     5:TE                     6:dd                     7:dT                     8:dE                 
    2       1.015494230853e+03       3.132583294858e-02       1.841456346346e-06       2.618910599825e+00       4.898855367855e-08       2.982482649114e-03      -1.231505335355e-05 
    3       9.612426042971e+02       4.127359129043e-02       3.683794355585e-06       2.969577991496e+00       6.048251531340e-08       3.000074867973e-03      -1.341684816695e-05 
    4       9.095160999223e+02       3.679651515105e-02       6.141591538153e-06       2.802793708187e+00       7.028883573570e-08       2.935525967799e-03      -1.160398400504e-05 
    5       8.705884166039e+02       2.534049113055e-02       9.215954880790e-06       2.408564754153e+00       7.881316272620e-08       2.840209538483e-03      -8.198409846058e-06 
    6       8.436989326889e+02       1.454173672831e-02       1.290821132800e-05       1.956079862175e+00       8.627678393058e-08       2.734881745799e-03      -4.323225325685e-06 
    7       8.265344417064e+02       7.872938433325e-03       1.721987318250e-05       1.545462507589e+00       9.285638972589e-08       2.628998981145e-03      -8.816121282923e-07 
    8       8.162125695636e+02       4.946618156029e-03       2.215259966928e-05       1.222632248986e+00       9.866774102453e-08       2.525767061677e-03       1.545983312608e-06 
    9       8.112534070704e+02       3.923513455315e-03       2.770815612996e-05       1.000210207635e+00       1.038301957074e-07       2.426310115676e-03       2.732202804975e-06 
   10       8.103022755705e+02       3.391155105733e-03       3.388837239190e-05       8.711686019029e-01       1.084709645648e-07       2.333045073998e-03       2.769442293878e-06 
   11       8.122776016188e+02       2.882302873043e-03       4.069510187092e-05       8.180842222603e-01       1.093135405856e-07       2.255051190745e-03       1.986671639323e-06 
   12       8.169407639187e+02       2.484761122274e-03       4.813018291655e-05       8.192181804840e-01       1.129019515949e-07       2.173289230694e-03       8.015283705563e-07 
   13       8.232593134870e+02       2.330072471017e-03       5.619540379662e-05       8.540386853488e-01       1.161191152108e-07       2.096086434639e-03      -3.744356213673e-07 
   14       8.307321600504e+02       2.394126023625e-03       6.489247254910e-05       9.069271427171e-01       1.190044216500e-07       2.018089421625e-03      -1.243079201415e-06 
   15       8.395759568188e+02       2.576306221936e-03       7.422299270917e-05       9.672213461515e-01       1.215939454387e-07       1.947042912507e-03      -1.648895347219e-06 
   16       8.497053831500e+02       2.825614535521e-03       8.418844565952e-05       1.028764148124e+00       1.239185376566e-07       1.882587564426e-03      -1.602489920403e-06 
   17       8.603063215341e+02       3.168373461833e-03       9.479018006098e-05       1.089812198828e+00       1.260040159549e-07       1.821335084558e-03      -1.235568655852e-06 
   18       8.716872448012e+02       3.658127011070e-03       1.060294050773e-04       1.150891790211e+00       1.278227001631e-07       1.759637139842e-03      -7.474735110927e-07 
   19       8.839427885020e+02       4.310768075580e-03       1.179072112760e-04       1.213674144118e+00       1.295431899326e-07       1.700163454599e-03      -2.928018784713e-07 
   20       8.965739854514e+02       5.122062532865e-03       1.304245434145e-04       1.280003385247e+00       1.310270041289e-07       1.644300847539e-03      -2.723942579445e-08 
   21       9.096720673035e+02       6.081894549976e-03       1.435822668664e-04       1.350227098107e+00       1.323607004111e-07       1.593578763099e-03       4.855515891029e-09 
   22       9.232771004992e+02       7.176141015193e-03       1.573811357555e-04       1.423674107108e+00       1.335198368757e-07       1.546892083649e-03      -1.688315075550e-07 
   23       9.373217436845e+02       8.408069131685e-03       1.718218721812e-04       1.498345556295e+00       1.345737513639e-07       1.503244428649e-03      -4.758222837603e-07 
   24       9.515676086327e+02       9.784268907751e-03       1.869051340644e-04       1.571382408429e+00       1.354743320173e-07       1.459995430036e-03      -8.017033215615e-07 
   25       9.660891152097e+02       1.130250807868e-02       2.026316069772e-04       1.640253107243e+00       1.362756158554e-07       1.417377449635e-03      -1.064487220401e-06 
   26       9.809467193384e+02       1.295908265107e-02       2.190019661318e-04       1.702488658639e+00       1.369564662240e-07       1.375830722716e-03      -1.193342445186e-06 
   27       9.961564657829e+02       1.476537144793e-02       2.360169552543e-04       1.756916646660e+00       1.375436394371e-07       1.336624764965e-03      -1.179569708877e-06 
   28       1.011648063857e+03       1.673788549314e-02       2.536773600943e-04       1.802952505875e+00       1.380012736250e-07       1.300538683144e-03      -1.049644526489e-06 
   29       1.027451010936e+03       1.888914611575e-02       2.719840959700e-04       1.840813568064e+00       1.384017093039e-07       1.267552655994e-03      -8.502484069168e-07 
   30       1.043530710102e+03       2.123109416613e-02       2.909381522241e-04       1.871214497439e+00       1.387650190868e-07       1.236173442700e-03      -6.556761512369e-07 
   31       1.059775920820e+03       2.377524937945e-02       3.105405857246e-04       1.894986881644e+00       1.390117694575e-07       1.204023999504e-03      -5.506784834584e-07 
   32       1.076213198391e+03       2.652823417414e-02       3.307925703504e-04       1.912152371279e+00       1.391862786693e-07       1.171726719151e-03      -5.466189678374e-07 
   33       1.092853572876e+03       2.949445935195e-02       3.516953814011e-04       1.922512150135e+00       1.393167223924e-07       1.140747883038e-03      -6.220015186885e-07 
   34       1.109660104956e+03       3.267793942147e-02       3.732503728235e-04       1.925752728828e+00       1.393672673897e-07       1.112202668257e-03      -7.436885589079e-07 
   35       1.126661847801e+03       3.608492218378e-02       3.954589097524e-04       1.920984444130e+00       1.393694288459e-07       1.086121394542e-03      -8.805894078544e-07 
   36       1.143867419288e+03       3.972210998692e-02       4.183224256490e-04       1.907023755445e+00       1.393298606393e-07       1.061634023273e-03      -9.935015443584e-07 
   37       1.161252671884e+03       4.359590990283e-02       4.418423781532e-04       1.882707714217e+00       1.392098059041e-07       1.037482079434e-03      -1.041737389091e-06 
   38       1.178843349040e+03       4.771231126868e-02       4.660200115714e-04       1.847603122763e+00       1.390471915601e-07       1.013768491774e-03      -1.025556264653e-06 
   39       1.196651176354e+03       5.207692773939e-02       4.908565217504e-04       1.801527908629e+00       1.388773442875e-07       9.908707812875e-04      -9.632249816769e-07 
   40       1.214646196469e+03       5.669499865865e-02       5.163531214479e-04       1.744366223093e+00       1.386871239281e-07       9.689484067241e-04      -8.819414142362e-07 
   41       1.232779668800e+03       6.157138669045e-02       5.425109367262e-04       1.676083257994e+00       1.384300213039e-07       9.479788240067e-04      -8.122282079633e-07 
   42       1.251072139933e+03       6.671062902307e-02       5.693306523549e-04       1.596766105842e+00       1.381283408632e-07       9.280159082590e-04      -7.645782089197e-07 
   43       1.269546757423e+03       7.211686135800e-02       5.968127532286e-04       1.506602776624e+00       1.378071945442e-07       9.089699996040e-04      -7.436794035853e-07 
   44       1.288202104006e+03       7.779377438595e-02       6.249576135795e-04       1.405877007604e+00       1.374593330350e-07       8.904911956075e-04      -7.542965429847e-07 
   45       1.307023885263e+03       8.374478032735e-02       6.537654204111e-04       1.294815859891e+00       1.370572693792e-07       8.721239257521e-04      -7.993727608358e-07 
   46       1.326029955954e+03       8.997362646337e-02       6.832359305115e-04       1.173067295175e+00       1.366249240727e-07       8.539634848246e-04      -8.734263257576e-07 
   47       1.345234570517e+03       9.648392565928e-02       7.133686306850e-04       1.040074268907e+00       1.361902021823e-07       8.362146800676e-04      -9.661561205819e-07 
   48       1.364633801838e+03       1.032789707029e-01       7.441627923160e-04       8.952138806185e-01       1.357609398626e-07       8.190031517446e-04      -1.063666069688e-06 
   49       1.384203896197e+03       1.103617220856e-01       7.756174613572e-04       7.377929480531e-01       1.353188116890e-07       8.023593923652e-04      -1.148054030852e-06 
   50       1.403915438783e+03       1.177344047280e-01       8.077314946652e-04       5.671814022756e-01       1.348312343267e-07       7.862535783182e-04      -1.202339063389e-06 
   51       1.423784199766e+03       1.253971974580e-01       8.405037038604e-04       3.832654274363e-01       1.343120880380e-07       7.707579367188e-04      -1.228679504259e-06 
   52       1.443831246227e+03       1.333491666849e-01       8.739327332104e-04       1.861096702900e-01       1.337813287329e-07       7.559203470595e-04      -1.236731701949e-06 
   53       1.464067458194e+03       1.415885964690e-01       9.080170090517e-04      -2.416781955904e-02       1.332458706881e-07       7.417067282026e-04      -1.239210047631e-06 
   54       1.484492627602e+03       1.501129579000e-01       9.427547319594e-04      -2.473935298313e-01       1.326960057525e-07       7.279886266809e-04      -1.252203783776e-06 
   55       1.505101947494e+03       1.589198539300e-01       9.781440861764e-04      -4.834081574523e-01       1.321137255506e-07       7.146027467339e-04      -1.291138809020e-06 
   56       1.525909431556e+03       1.680101988830e-01       1.014183946767e-03      -7.323006112496e-01       1.315124543377e-07       7.015868639823e-04      -1.356094198513e-06 
   57       1.546928734263e+03       1.773857751681e-01       1.050873334419e-03      -9.942285326025e-01       1.309096281209e-07       6.890079144175e-04      -1.441658880784e-06 
   58       1.568165670628e+03       1.870483342494e-01       1.088211214198e-03      -1.269352375767e+00       1.303141001897e-07       6.768911236345e-04      -1.540680778839e-06 
   59       1.589617603093e+03       1.969996040296e-01       1.126196496179e-03      -1.557836142792e+00       1.297239374608e-07       6.652138224292e-04      -1.644097920781e-06 
   60       1.611272828431e+03       2.072412962330e-01       1.164828036079e-03      -1.859848118436e+00       1.291240155859e-07       6.538989959273e-04      -1.740763470606e-06 
   61       1.633117768319e+03       2.177739092203e-01       1.204104887366e-03      -2.175509729983e+00       1.284940622627e-07       6.428524749532e-04      -1.819882568684e-06 
   62       1.655161814126e+03       2.285928057143e-01       1.244027122250e-03      -2.504727050297e+00       1.278434801043e-07       6.321050947478e-04      -1.879717257677e-06 
   63       1.677416996224e+03       2.396912637726e-01       1.284595196938e-03      -2.847322605817e+00       1.271872129060e-07       6.217061087032e-04      -1.921470744430e-06 
   64       1.699890314149e+03       2.510615734418e-01       1.325809724862e-03      -3.203083021267e+00       1.265352924692e-07       6.116802247848e-04      -1.946974729393e-06 
   65       1.722583371104e+03       2.626950059206e-01       1.367671485297e-03      -3.571758108616e+00       1.258916227881e-07       6.020242738711e-04      -1.958749445625e-06 
   66       1.745492008459e+03       2.745817827228e-01       1.410181431974e-03      -3.953059956034e+00       1.252526620118e-07       5.927037475520e-04      -1.960065722013e-06 
   67       1.768605940258e+03       2.867110448409e-01       1.453340701691e-03      -4.346662016853e+00       1.246059989295e-07       5.836492053809e-04      -1.955009070723e-06 
   68       1.791914708783e+03       2.990721674960e-01       1.497150542387e-03      -4.752252715171e+00       1.239365057693e-07       5.747838164823e-04      -1.947635166158e-06 
   69       1.815427769561e+03       3.116590826722e-01       1.541612061196e-03      -5.169710912208e+00       1.232514187793e-07       5.661244158236e-04      -1.938982331163e-06 
   70       1.839157838213e+03       3.244667810692e-01       1.586726440579e-03      -5.598964520778e+00       1.225624918633e-07       5.577042723838e-04      -1.929275128929e-06 
   71       1.863114729299e+03       3.374900475235e-01       1.632495020783e-03      -6.039939609029e+00       1.218785418589e-07       5.495428377713e-04      -1.918757807303e-06 
   72       1.887305152485e+03       3.507234645854e-01       1.678919306397e-03      -6.492560883698e+00       1.212047694686e-07       5.416440397451e-04      -1.907694555896e-06 
   73       1.911732508707e+03       3.641614160961e-01       1.726000972901e-03      -6.956752173350e+00       1.205420283190e-07       5.339945152321e-04      -1.896369747376e-06 
   74       1.936396686339e+03       3.777980907647e-01       1.773741873220e-03      -7.432436911628e+00       1.198860406535e-07       5.265617828425e-04      -1.885088162936e-06 
   75       1.961293857362e+03       3.916274857458e-01       1.822144044282e-03      -7.919538620495e+00       1.192265581600e-07       5.192923548818e-04      -1.874175201957e-06 
   76       1.986419528430e+03       4.056427650660e-01       1.871209394801e-03      -8.417940612682e+00       1.185518986425e-07       5.121309970414e-04      -1.863959947101e-06 
   77       2.011778786998e+03       4.198341919312e-01       1.920938688440e-03      -8.927355547079e+00       1.178666065782e-07       5.050890851398e-04      -1.854718511599e-06 
   78       2.037377561984e+03       4.341908241130e-01       1.971332386269e-03      -9.447432853586e+00       1.171785078034e-07       4.981913029550e-04      -1.846715579418e-06 
   79       2.063219399747e+03       4.487011161525e-01       2.022390949094e-03      -9.977797056368e+00       1.164934537391e-07       4.914552632007e-04      -1.840219290439e-06 
   80       2.089305326998e+03       4.633529097077e-01       2.074114837479e-03      -1.051804742087e+01       1.158149253614e-07       4.848906899441e-04      -1.835500262190e-06 
   81       2.115633713712e+03       4.781334239019e-01       2.126504511756e-03      -1.106775760079e+01       1.151436102190e-07       4.784985746312e-04      -1.832830568227e-06 
   82       2.142200136040e+03       4.930292456710e-01       2.179560432047e-03      -1.162647528514e+01       1.144769518047e-07       4.722703057185e-04      -1.832482673136e-06 
   83       2.168997239216e+03       5.080263201116e-01       2.233283058279e-03      -1.219372184518e+01       1.138086705808e-07       4.661867719115e-04      -1.834728324177e-06 
   84       2.196017754492e+03       5.231105719061e-01       2.287672973794e-03      -1.276902406623e+01       1.131317798221e-07       4.602269904898e-04      -1.839745775081e-06 
   85       2.223264424868e+03       5.382699091100e-01       2.342731279694e-03      -1.335201616031e+01       1.124499778420e-07       4.543985573717e-04      -1.847317383893e-06 
   86       2.250741481141e+03       5.534925353976e-01       2.398459266204e-03      -1.394235409646e+01       1.117690491556e-07       4.487130400734e-04      -1.857055060579e-06 
   87       2.278451551345e+03       5.687663494598e-01       2.454858296958e-03      -1.453968520308e+01       1.110934356664e-07       4.431765791993e-04      -1.868479527216e-06 
   88       2.306395576672e+03       5.840789459579e-01       2.511929811086e-03      -1.514364835420e+01       1.104259952304e-07       4.377893641087e-04      -1.881014154314e-06 
   89       2.334572727393e+03       5.994176164780e-01       2.569675325314e-03      -1.575387415571e+01       1.097677453643e-07       4.325450935876e-04      -1.893978644432e-06 
   90       2.362980318772e+03       6.147693504851e-01       2.628096436057e-03      -1.636998513160e+01       1.091175917466e-07       4.274304215266e-04      -1.906582563082e-06 
   91       2.391613726993e+03       6.301208362770e-01       2.687194821510e-03      -1.699159591021e+01       1.084720411666e-07       4.224243876042e-04      -1.917918716928e-06 
   92       2.420466305073e+03       6.454584619386e-01       2.746972243744e-03      -1.761831341046e+01       1.078248985707e-07       4.174978329756e-04      -1.926956379270e-06 
   93       2.449531607988e+03       6.607684648832e-01       2.807430920524e-03      -1.824973022345e+01       1.071698204636e-07       4.126230044953e-04      -1.932782411896e-06 
   94       2.478810633483e+03       6.760374041316e-01       2.868574700177e-03      -1.888540321404e+01       1.065095959742e-07       4.078061982742e-04      -1.935402687987e-06 
   95       2.508305519888e+03       6.912517611584e-01       2.930408068118e-03      -1.952487203031e+01       1.058490333892e-07       4.030613436432e-04      -1.935107980408e-06 
   96       2.538017282271e+03       7.063978005874e-01       2.992935799943e-03      -2.016766571305e+01       1.051922023533e-07       3.984002254021e-04      -1.932244540686e-06 
   97       2.567945760058e+03       7.214615731854e-01       3.056162968599e-03      -2.081330278859e+01       1.045423034076e-07       3.938322627048e-04      -1.927217212886e-06 
   98       2.598089564645e+03       7.364289188558e-01       3.120094951553e-03      -2.146129136164e+01       1.039015301179e-07       3.893642819393e-04      -1.920492613271e-06 
   99       2.628446027023e+03       7.512854696328e-01       3.184737437963e-03      -2.211112920814e+01       1.032709236331e-07       3.850002836009e-04      -1.912602375762e-06 
  100       2.659011145388e+03       7.660166526747e-01       3.250096435845e-03      -2.276230386807e+01       1.026502195173e-07       3.807412031588e-04      -1.904146463186e-06 
  101       2.689779532765e+03       7.806076932576e-01       3.316178279242e-03      -2.341429273830e+01       1.020376866939e-07       3.765846659171e-04      -1.895796544312e-06 
  102       2.720744364621e+03       7.950436177699e-01       3.382989635394e-03      -2.406656316543e+01       1.014299583446e-07       3.725247358692e-04      -1.888299436687e-06 
  103       2.751897326488e+03       8.093092567051e-01       3.450537511908e-03      -2.471857253863e+01       1.008218546041e-07       3.685516585455e-04      -1.882480615253e-06 
  104       2.783230354820e+03       8.233896452892e-01       3.518828691538e-03      -2.536977702833e+01       1.002083020824e-07       3.646557243650e-04      -1.879064854107e-06 
  105       2.814741240244e+03       8.372712805477e-01       3.587867934136e-03      -2.601965894692e+01       9.959110922732e-08       3.608403358322e-04      -1.878088651180e-06 
  106       2.846428687098e+03       8.509410404218e-01       3.657659544042e-03      -2.666770327438e+01       9.897365600752e-08       3.571110891052e-04      -1.879375761681e-06 
  107       2.878290555491e+03       8.643858085734e-01       3.728207921658e-03      -2.731338952801e+01       9.835887778147e-08       3.534717373811e-04      -1.882707452503e-06 
